"20220330_cdom_endofday.spc - RawData"
"Wavelength nm.","Abs."
190.00,0.033
191.00,0.029
192.00,0.028
193.00,0.028
194.00,0.026
195.00,0.026
196.00,0.026
197.00,0.025
198.00,0.024
199.00,0.023
200.00,0.023
201.00,0.021
202.00,0.021
203.00,0.020
204.00,0.019
205.00,0.018
206.00,0.018
207.00,0.017
208.00,0.016
209.00,0.016
210.00,0.016
211.00,0.015
212.00,0.015
213.00,0.014
214.00,0.014
215.00,0.014
216.00,0.013
217.00,0.013
218.00,0.013
219.00,0.013
220.00,0.013
221.00,0.012
222.00,0.012
223.00,0.012
224.00,0.012
225.00,0.012
226.00,0.012
227.00,0.011
228.00,0.011
229.00,0.011
230.00,0.011
231.00,0.011
232.00,0.010
233.00,0.010
234.00,0.010
235.00,0.010
236.00,0.010
237.00,0.010
238.00,0.010
239.00,0.010
240.00,0.010
241.00,0.009
242.00,0.009
243.00,0.009
244.00,0.009
245.00,0.009
246.00,0.009
247.00,0.009
248.00,0.008
249.00,0.008
250.00,0.008
251.00,0.008
252.00,0.008
253.00,0.008
254.00,0.008
255.00,0.008
256.00,0.008
257.00,0.008
258.00,0.008
259.00,0.008
260.00,0.008
261.00,0.008
262.00,0.008
263.00,0.008
264.00,0.008
265.00,0.008
266.00,0.008
267.00,0.008
268.00,0.007
269.00,0.008
270.00,0.007
271.00,0.007
272.00,0.007
273.00,0.007
274.00,0.007
275.00,0.007
276.00,0.007
277.00,0.007
278.00,0.007
279.00,0.007
280.00,0.007
281.00,0.007
282.00,0.007
283.00,0.007
284.00,0.007
285.00,0.007
286.00,0.006
287.00,0.006
288.00,0.006
289.00,0.006
290.00,0.006
291.00,0.006
292.00,0.006
293.00,0.006
294.00,0.006
295.00,0.006
296.00,0.006
297.00,0.006
298.00,0.006
299.00,0.006
300.00,0.006
301.00,0.006
302.00,0.006
303.00,0.006
304.00,0.006
305.00,0.006
306.00,0.006
307.00,0.006
308.00,0.006
309.00,0.006
310.00,0.005
311.00,0.006
312.00,0.006
313.00,0.006
314.00,0.006
315.00,0.005
316.00,0.005
317.00,0.005
318.00,0.005
319.00,0.005
320.00,0.005
321.00,0.005
322.00,0.005
323.00,0.005
324.00,0.005
325.00,0.005
326.00,0.005
327.00,0.005
328.00,0.005
329.00,0.005
330.00,0.005
331.00,0.005
332.00,0.005
333.00,0.005
334.00,0.005
335.00,0.005
336.00,0.004
337.00,0.004
338.00,0.005
339.00,0.005
340.00,0.006
341.00,0.005
342.00,0.004
343.00,0.004
344.00,0.004
345.00,0.004
346.00,0.004
347.00,0.004
348.00,0.004
349.00,0.004
350.00,0.004
351.00,0.004
352.00,0.004
353.00,0.004
354.00,0.004
355.00,0.004
356.00,0.004
357.00,0.004
358.00,0.004
359.00,0.004
360.00,0.004
361.00,0.004
362.00,0.003
363.00,0.004
364.00,0.004
365.00,0.003
366.00,0.003
367.00,0.003
368.00,0.003
369.00,0.003
370.00,0.003
371.00,0.003
372.00,0.003
373.00,0.003
374.00,0.003
375.00,0.003
376.00,0.003
377.00,0.003
378.00,0.003
379.00,0.003
380.00,0.003
381.00,0.003
382.00,0.003
383.00,0.002
384.00,0.002
385.00,0.002
386.00,0.003
387.00,0.002
388.00,0.002
389.00,0.002
390.00,0.002
391.00,0.002
392.00,0.002
393.00,0.002
394.00,0.002
395.00,0.002
396.00,0.002
397.00,0.002
398.00,0.002
399.00,0.002
400.00,0.002
401.00,0.002
402.00,0.002
403.00,0.002
404.00,0.002
405.00,0.002
406.00,0.002
407.00,0.002
408.00,0.002
409.00,0.002
410.00,0.002
411.00,0.002
412.00,0.002
413.00,0.002
414.00,0.002
415.00,0.002
416.00,0.002
417.00,0.001
418.00,0.001
419.00,0.001
420.00,0.001
421.00,0.001
422.00,0.001
423.00,0.001
424.00,0.001
425.00,0.002
426.00,0.001
427.00,0.001
428.00,0.001
429.00,0.001
430.00,0.001
431.00,0.001
432.00,0.001
433.00,0.001
434.00,0.001
435.00,0.001
436.00,0.001
437.00,0.001
438.00,0.001
439.00,0.001
440.00,0.001
441.00,0.001
442.00,0.001
443.00,0.001
444.00,0.001
445.00,0.001
446.00,0.001
447.00,0.001
448.00,0.001
449.00,0.001
450.00,0.001
451.00,0.001
452.00,0.001
453.00,0.001
454.00,0.001
455.00,0.001
456.00,0.001
457.00,0.001
458.00,0.001
459.00,0.001
460.00,0.001
461.00,0.001
462.00,0.001
463.00,0.001
464.00,0.001
465.00,0.001
466.00,0.001
467.00,0.001
468.00,0.001
469.00,0.001
470.00,0.001
471.00,0.001
472.00,0.001
473.00,0.001
474.00,0.001
475.00,0.001
476.00,0.001
477.00,0.001
478.00,0.001
479.00,0.001
480.00,0.001
481.00,0.001
482.00,0.001
483.00,0.001
484.00,0.001
485.00,0.001
486.00,0.001
487.00,0.001
488.00,0.001
489.00,0.000
490.00,0.000
491.00,0.000
492.00,0.001
493.00,0.000
494.00,0.001
495.00,0.001
496.00,0.000
497.00,0.000
498.00,0.000
499.00,0.000
500.00,0.001
501.00,0.001
502.00,0.000
503.00,0.000
504.00,0.001
505.00,0.000
506.00,0.000
507.00,0.000
508.00,0.000
509.00,0.000
510.00,0.000
511.00,0.000
512.00,0.000
513.00,0.000
514.00,0.000
515.00,0.000
516.00,0.000
517.00,0.000
518.00,0.000
519.00,0.000
520.00,0.000
521.00,0.000
522.00,0.000
523.00,0.000
524.00,0.000
525.00,0.000
526.00,0.000
527.00,0.000
528.00,0.000
529.00,0.000
530.00,0.000
531.00,0.000
532.00,0.000
533.00,0.000
534.00,0.000
535.00,0.000
536.00,0.001
537.00,0.000
538.00,0.000
539.00,0.000
540.00,0.000
541.00,0.000
542.00,0.000
543.00,0.000
544.00,0.000
545.00,0.000
546.00,0.000
547.00,0.000
548.00,0.000
549.00,0.000
550.00,0.000
551.00,0.000
552.00,0.000
553.00,0.000
554.00,0.000
555.00,0.000
556.00,0.000
557.00,0.000
558.00,0.000
559.00,0.000
560.00,0.000
561.00,0.000
562.00,0.000
563.00,0.000
564.00,0.000
565.00,0.000
566.00,0.000
567.00,0.000
568.00,0.000
569.00,0.000
570.00,0.000
571.00,0.000
572.00,0.000
573.00,0.000
574.00,0.000
575.00,0.000
576.00,0.000
577.00,0.000
578.00,0.000
579.00,0.000
580.00,0.000
581.00,0.000
582.00,0.000
583.00,-0.000
584.00,0.000
585.00,0.000
586.00,0.000
587.00,0.000
588.00,0.000
589.00,0.000
590.00,-0.000
591.00,0.000
592.00,0.000
593.00,0.000
594.00,0.000
595.00,0.000
596.00,0.000
597.00,-0.000
598.00,-0.000
599.00,-0.000
600.00,-0.000
601.00,-0.000
602.00,0.000
603.00,0.000
604.00,0.000
605.00,-0.000
606.00,0.000
607.00,0.000
608.00,0.000
609.00,-0.000
610.00,-0.000
611.00,-0.000
612.00,0.000
613.00,0.000
614.00,-0.000
615.00,-0.000
616.00,0.000
617.00,0.000
618.00,0.000
619.00,-0.000
620.00,-0.000
621.00,-0.000
622.00,-0.000
623.00,-0.000
624.00,-0.000
625.00,-0.000
626.00,-0.000
627.00,-0.000
628.00,0.000
629.00,-0.000
630.00,-0.000
631.00,-0.000
632.00,-0.000
633.00,-0.000
634.00,-0.000
635.00,-0.000
636.00,-0.000
637.00,-0.000
638.00,-0.000
639.00,-0.000
640.00,-0.000
641.00,-0.000
642.00,-0.000
643.00,-0.000
644.00,-0.000
645.00,-0.000
646.00,-0.000
647.00,-0.000
648.00,-0.000
649.00,-0.000
650.00,-0.000
651.00,-0.000
652.00,-0.000
653.00,-0.000
654.00,-0.000
655.00,-0.000
656.00,0.000
657.00,-0.000
658.00,-0.000
659.00,-0.000
660.00,-0.000
661.00,-0.000
662.00,-0.000
663.00,-0.000
664.00,-0.000
665.00,-0.000
666.00,-0.000
667.00,-0.000
668.00,-0.000
669.00,-0.000
670.00,0.000
671.00,0.000
672.00,0.000
673.00,-0.000
674.00,0.000
675.00,0.000
676.00,0.000
677.00,-0.000
678.00,-0.000
679.00,-0.000
680.00,-0.000
681.00,-0.000
682.00,-0.000
683.00,-0.000
684.00,-0.000
685.00,0.000
686.00,-0.000
687.00,-0.000
688.00,-0.000
689.00,-0.000
690.00,-0.000
691.00,0.000
692.00,0.000
693.00,-0.000
694.00,-0.000
695.00,-0.000
696.00,0.000
697.00,-0.000
698.00,0.000
699.00,-0.000
700.00,-0.000
701.00,-0.000
702.00,-0.000
703.00,-0.000
704.00,-0.000
705.00,-0.000
706.00,-0.000
707.00,-0.000
708.00,-0.000
709.00,-0.000
710.00,-0.000
711.00,-0.000
712.00,-0.000
713.00,-0.000
714.00,-0.000
715.00,-0.000
716.00,-0.000
717.00,-0.000
718.00,0.000
719.00,-0.000
720.00,-0.000
721.00,0.000
722.00,0.000
723.00,0.000
724.00,-0.000
725.00,-0.000
726.00,-0.000
727.00,-0.000
728.00,-0.000
729.00,-0.000
730.00,-0.000
731.00,-0.000
732.00,-0.000
733.00,-0.000
734.00,-0.000
735.00,-0.000
736.00,0.000
737.00,-0.000
738.00,-0.000
739.00,0.000
740.00,0.000
741.00,0.000
742.00,0.000
743.00,0.000
744.00,-0.000
745.00,-0.000
746.00,-0.000
747.00,-0.000
748.00,-0.000
749.00,0.000
750.00,-0.000
751.00,-0.000
752.00,-0.000
753.00,-0.000
754.00,-0.000
755.00,-0.000
756.00,-0.000
757.00,-0.000
758.00,-0.000
759.00,0.000
760.00,0.001
761.00,0.000
762.00,-0.000
763.00,-0.000
764.00,-0.000
765.00,-0.000
766.00,-0.000
767.00,-0.000
768.00,-0.000
769.00,-0.000
770.00,-0.000
771.00,-0.000
772.00,-0.000
773.00,-0.000
774.00,-0.000
775.00,-0.000
776.00,-0.000
777.00,-0.000
778.00,-0.000
779.00,-0.000
780.00,-0.000
781.00,-0.000
782.00,-0.000
783.00,-0.000
784.00,-0.000
785.00,-0.000
786.00,-0.000
787.00,-0.000
788.00,-0.000
789.00,-0.000
790.00,-0.000
791.00,-0.000
792.00,-0.000
793.00,-0.000
794.00,-0.000
795.00,-0.000
796.00,-0.000
797.00,-0.000
798.00,-0.000
799.00,-0.000
800.00,-0.000
801.00,-0.000
802.00,-0.000
803.00,-0.000
804.00,-0.000
805.00,-0.000
806.00,-0.000
807.00,-0.000
808.00,-0.000
809.00,-0.000
810.00,-0.000
811.00,-0.000
812.00,-0.000
813.00,-0.000
814.00,-0.000
815.00,-0.000
816.00,-0.000
817.00,-0.000
818.00,-0.000
819.00,-0.000
820.00,-0.000
821.00,-0.000
822.00,-0.000
823.00,-0.000
824.00,-0.000
825.00,-0.000
826.00,-0.000
827.00,0.000
828.00,-0.000
829.00,-0.000
830.00,-0.000
831.00,0.000
832.00,0.000
833.00,0.000
834.00,0.000
835.00,0.000
836.00,0.000
837.00,0.000
838.00,0.000
839.00,0.000
840.00,0.000
841.00,0.000
842.00,0.000
843.00,0.000
844.00,0.000
845.00,0.000
846.00,0.000
847.00,0.000
848.00,0.000
849.00,0.000
850.00,0.000
